[DEFAULT]

version = diffpy.pdfgetx-2.1.2

# input and output specifications
dataformat = twotheta
inputfile = CGSR_021.dat
backgroundfile = toluene_sum.dat
outputtype = gr

# PDF calculation setup
mode = xray
wavelength = 0.51391
twothetazero = 0
composition = Au
bgscale = 0.881
rpoly = 0.9
qmaxinst = 21
qmin = 0.58
qmax = 21
rmin = 0
rmax = 50
rstep = 0.01

# End of config --------------------------------------------------------------

#### start data
#S 1
#L r(Å)  G(Å$^{-2}$)
0 0
0.01 -3.80696e-12
0.02 -1.54875e-10
0.03 -1.75342e-09
0.04 -1.07494e-08
0.05 -4.54859e-08
0.06 -1.63056e-07
0.07 -4.82305e-07
0.08 -1.19795e-06
0.09 -2.63593e-06
0.1 -5.29466e-06
0.11 -9.95779e-06
0.12 -1.80984e-05
0.13 -3.09253e-05
0.14 -5.02905e-05
0.15 -7.84865e-05
0.16 -0.000118272
0.17 -0.000174698
0.18 -0.000251168
0.19 -0.000351324
0.2 -0.000479673
0.21 -0.00064088
0.22 -0.00084131
0.23 -0.00108826
0.24 -0.00138181
0.25 -0.00172471
0.26 -0.00211843
0.27 -0.0025627
0.28 -0.0030602
0.29 -0.00359975
0.3 -0.0041713
0.31 -0.00476187
0.32 -0.00535422
0.33 -0.00592352
0.34 -0.0064366
0.35 -0.00686122
0.36 -0.00715773
0.37 -0.00728074
0.38 -0.00717827
0.39 -0.00674954
0.4 -0.0059627
0.41 -0.00475058
0.42 -0.0030427
0.43 -0.00076624
0.44 0.00221076
0.45 0.00595574
0.46 0.0105035
0.47 0.0159193
0.48 0.0222616
0.49 0.0296039
0.5 0.0380764
0.51 0.0475893
0.52 0.0581452
0.53 0.069728
0.54 0.0823002
0.55 0.0958872
0.56 0.110325
0.57 0.125464
0.58 0.14116
0.59 0.157243
0.6 0.173515
0.61 0.189715
0.62 0.205581
0.63 0.220844
0.64 0.235222
0.65 0.248423
0.66 0.259931
0.67 0.269573
0.68 0.277079
0.69 0.282175
0.7 0.284606
0.71 0.283949
0.72 0.279967
0.73 0.272733
0.74 0.262163
0.75 0.248228
0.76 0.230936
0.77 0.210012
0.78 0.186059
0.79 0.159324
0.8 0.130117
0.81 0.0988123
0.82 0.0657417
0.83 0.03153
0.84 -0.00320333
0.85 -0.0378879
0.86 -0.0719323
0.87 -0.104686
0.88 -0.135318
0.89 -0.163407
0.9 -0.188422
0.91 -0.209883
0.92 -0.227373
0.93 -0.240077
0.94 -0.248051
0.95 -0.251309
0.96 -0.249839
0.97 -0.243745
0.98 -0.233057
0.99 -0.218019
1 -0.199495
1.01 -0.178069
1.02 -0.154422
1.03 -0.129313
1.04 -0.103597
1.05 -0.0783274
1.06 -0.0544145
1.07 -0.0327638
1.08 -0.0142582
1.09 -6.02153e-05
1.1 0.00893882
1.11 0.0123661
1.12 0.00968604
1.13 0.00049438
1.14 -0.0155381
1.15 -0.0392893
1.16 -0.0697959
1.17 -0.106776
1.18 -0.149782
1.19 -0.198209
1.2 -0.251631
1.21 -0.308813
1.22 -0.368511
1.23 -0.429609
1.24 -0.490936
1.25 -0.551219
1.26 -0.608919
1.27 -0.663005
1.28 -0.712392
1.29 -0.756091
1.3 -0.793239
1.31 -0.822272
1.32 -0.843201
1.33 -0.855918
1.34 -0.860315
1.35 -0.856488
1.36 -0.844357
1.37 -0.824276
1.38 -0.797634
1.39 -0.765314
1.4 -0.728338
1.41 -0.687838
1.42 -0.644889
1.43 -0.601173
1.44 -0.557971
1.45 -0.516517
1.46 -0.477978
1.47 -0.44378
1.48 -0.414973
1.49 -0.39203
1.5 -0.375511
1.51 -0.365782
1.52 -0.363101
1.53 -0.368134
1.54 -0.379734
1.55 -0.397409
1.56 -0.420496
1.57 -0.448185
1.58 -0.479779
1.59 -0.513911
1.6 -0.549333
1.61 -0.584935
1.62 -0.619631
1.63 -0.652289
1.64 -0.681648
1.65 -0.707144
1.66 -0.728149
1.67 -0.744206
1.68 -0.755042
1.69 -0.759998
1.7 -0.75971
1.71 -0.754658
1.72 -0.745373
1.73 -0.732536
1.74 -0.716864
1.75 -0.699383
1.76 -0.681295
1.77 -0.663613
1.78 -0.647339
1.79 -0.633423
1.8 -0.623257
1.81 -0.617231
1.82 -0.615897
1.83 -0.619648
1.84 -0.628692
1.85 -0.643422
1.86 -0.663516
1.87 -0.688223
1.88 -0.716937
1.89 -0.748899
1.9 -0.783241
1.91 -0.818959
1.92 -0.854733
1.93 -0.88948
1.94 -0.922137
1.95 -0.951703
1.96 -0.976814
1.97 -0.996825
1.98 -1.01133
1.99 -1.01996
2 -1.02252
2.01 -1.01883
2.02 -1.00885
2.03 -0.993682
2.04 -0.974012
2.05 -0.950693
2.06 -0.924712
2.07 -0.897102
2.08 -0.869304
2.09 -0.842503
2.1 -0.81782
2.11 -0.796297
2.12 -0.77914
2.13 -0.767315
2.14 -0.761016
2.15 -0.760552
2.16 -0.766003
2.17 -0.777215
2.18 -0.794438
2.19 -0.816228
2.2 -0.841717
2.21 -0.86987
2.22 -0.899527
2.23 -0.929359
2.24 -0.957865
2.25 -0.983786
2.26 -1.00594
2.27 -1.02329
2.28 -1.0348
2.29 -1.03917
2.3 -1.03673
2.31 -1.02741
2.32 -1.01145
2.33 -0.989366
2.34 -0.961564
2.35 -0.929638
2.36 -0.895146
2.37 -0.859634
2.38 -0.824767
2.39 -0.792448
2.4 -0.764884
2.41 -0.743432
2.42 -0.729537
2.43 -0.724407
2.44 -0.728949
2.45 -0.744936
2.46 -0.771384
2.47 -0.807662
2.48 -0.852832
2.49 -0.905463
2.5 -0.963831
2.51 -1.02512
2.52 -1.08603
2.53 -1.1433
2.54 -1.1934
2.55 -1.23254
2.56 -1.2545
2.57 -1.25699
2.58 -1.23636
2.59 -1.18917
2.6 -1.11238
2.61 -1.00055
2.62 -0.852306
2.63 -0.668153
2.64 -0.447575
2.65 -0.190814
2.66 0.101896
2.67 0.431226
2.68 0.790455
2.69 1.17598
2.7 1.58351
2.71 2.00813
2.72 2.445
2.73 2.8866
2.74 3.32635
2.75 3.7579
2.76 4.17491
2.77 4.56997
2.78 4.935
2.79 5.26657
2.8 5.55983
2.81 5.81056
2.82 6.01529
2.83 6.16519
2.84 6.26371
2.85 6.31081
2.86 6.30671
2.87 6.2525
2.88 6.14718
2.89 5.99377
2.9 5.79921
2.91 5.56767
2.92 5.30377
2.93 5.01235
2.94 4.69673
2.95 4.3656
2.96 4.0243
2.97 3.67801
2.98 3.33166
2.99 2.99057
3 2.65932
3.01 2.34113
3.02 2.03894
3.03 1.75511
3.04 1.49196
3.05 1.25246
3.06 1.03481
3.07 0.838903
3.08 0.664137
3.09 0.509505
3.1 0.375437
3.11 0.258621
3.12 0.156618
3.13 0.0674401
3.14 -0.0109262
3.15 -0.0801325
3.16 -0.14206
3.17 -0.199109
3.18 -0.252731
3.19 -0.304144
3.2 -0.354307
3.21 -0.403899
3.22 -0.453412
3.23 -0.502963
3.24 -0.552446
3.25 -0.60157
3.26 -0.649798
3.27 -0.696466
3.28 -0.741001
3.29 -0.782758
3.3 -0.82112
3.31 -0.855487
3.32 -0.884856
3.33 -0.909439
3.34 -0.929094
3.35 -0.943832
3.36 -0.953825
3.37 -0.959052
3.38 -0.960263
3.39 -0.95829
3.4 -0.953856
3.41 -0.947752
3.42 -0.940802
3.43 -0.93396
3.44 -0.92808
3.45 -0.923883
3.46 -0.921993
3.47 -0.92292
3.48 -0.92741
3.49 -0.935427
3.5 -0.946913
3.51 -0.96174
3.52 -0.979636
3.53 -1.0003
3.54 -1.02318
3.55 -1.04742
3.56 -1.07232
3.57 -1.09713
3.58 -1.12112
3.59 -1.14327
3.6 -1.16305
3.61 -1.17987
3.62 -1.19326
3.63 -1.20285
3.64 -1.20808
3.65 -1.20887
3.66 -1.20551
3.67 -1.19814
3.68 -1.18703
3.69 -1.17247
3.7 -1.15463
3.71 -1.13437
3.72 -1.11218
3.73 -1.08853
3.74 -1.06387
3.75 -1.03857
3.76 -1.01299
3.77 -0.987389
3.78 -0.961856
3.79 -0.936397
3.8 -0.910902
3.81 -0.885107
3.82 -0.858701
3.83 -0.831297
3.84 -0.80246
3.85 -0.771722
3.86 -0.738299
3.87 -0.701904
3.88 -0.662211
3.89 -0.618917
3.9 -0.57182
3.91 -0.520629
3.92 -0.465332
3.93 -0.406484
3.94 -0.344483
3.95 -0.279873
3.96 -0.213343
3.97 -0.145689
3.98 -0.0781077
3.99 -0.0116498
4 0.0525788
4.01 0.113443
4.02 0.169385
4.03 0.219194
4.04 0.262137
4.05 0.297304
4.06 0.323909
4.07 0.341148
4.08 0.347545
4.09 0.343966
4.1 0.330372
4.11 0.306915
4.12 0.273932
4.13 0.231149
4.14 0.179865
4.15 0.121291
4.16 0.0563952
4.17 -0.0137706
4.18 -0.0882081
4.19 -0.165782
4.2 -0.244981
4.21 -0.324713
4.22 -0.403947
4.23 -0.481735
4.24 -0.556879
4.25 -0.628804
4.26 -0.69699
4.27 -0.761
4.28 -0.820529
4.29 -0.875122
4.3 -0.924633
4.31 -0.969495
4.32 -1.00986
4.33 -1.04597
4.34 -1.07808
4.35 -1.10606
4.36 -1.13077
4.37 -1.15253
4.38 -1.17163
4.39 -1.18835
4.4 -1.20276
4.41 -1.21512
4.42 -1.22565
4.43 -1.23443
4.44 -1.24146
4.45 -1.2467
4.46 -1.24989
4.47 -1.25115
4.48 -1.25037
4.49 -1.24745
4.5 -1.24226
4.51 -1.23447
4.52 -1.22412
4.53 -1.21125
4.54 -1.1958
4.55 -1.17775
4.56 -1.15698
4.57 -1.13335
4.58 -1.10708
4.59 -1.07816
4.6 -1.04652
4.61 -1.01209
4.62 -0.974364
4.63 -0.933413
4.64 -0.889016
4.65 -0.840833
4.66 -0.788457
4.67 -0.731096
4.68 -0.668052
4.69 -0.599084
4.7 -0.523573
4.71 -0.440892
4.72 -0.350394
4.73 -0.250377
4.74 -0.141396
4.75 -0.0230752
4.76 0.104832
4.77 0.242414
4.78 0.390331
4.79 0.547925
4.8 0.7141
4.81 0.888031
4.82 1.06866
4.83 1.25477
4.84 1.44491
4.85 1.63673
4.86 1.82825
4.87 2.01732
4.88 2.20172
4.89 2.37817
4.9 2.5445
4.91 2.69863
4.92 2.83835
4.93 2.96159
4.94 3.06553
4.95 3.14737
4.96 3.20747
4.97 3.24483
4.98 3.25878
4.99 3.24899
5 3.21269
5.01 3.153
5.02 3.0711
5.03 2.96822
5.04 2.84588
5.05 2.70491
5.06 2.54766
5.07 2.37764
5.08 2.19729
5.09 2.00911
5.1 1.81563
5.11 1.61937
5.12 1.42334
5.13 1.22981
5.14 1.0409
5.15 0.858507
5.16 0.685118
5.17 0.52203
5.18 0.369882
5.19 0.229462
5.2 0.101287
5.21 -0.0140363
5.22 -0.115528
5.23 -0.204795
5.24 -0.282285
5.25 -0.348595
5.26 -0.404443
5.27 -0.449704
5.28 -0.486079
5.29 -0.514716
5.3 -0.53646
5.31 -0.552111
5.32 -0.562175
5.33 -0.567202
5.34 -0.56816
5.35 -0.56546
5.36 -0.559405
5.37 -0.5502
5.38 -0.537577
5.39 -0.521911
5.4 -0.503179
5.41 -0.481295
5.42 -0.456147
5.43 -0.427388
5.44 -0.39492
5.45 -0.358928
5.46 -0.319427
5.47 -0.2765
5.48 -0.230279
5.49 -0.180717
5.5 -0.128575
5.51 -0.0742971
5.52 -0.0184086
5.53 0.0384979
5.54 0.0957401
5.55 0.152496
5.56 0.208026
5.57 0.261598
5.58 0.312492
5.59 0.359887
5.6 0.402754
5.61 0.440888
5.62 0.473794
5.63 0.501062
5.64 0.52237
5.65 0.536804
5.66 0.544741
5.67 0.54633
5.68 0.541646
5.69 0.530838
5.7 0.513841
5.71 0.490808
5.72 0.462571
5.73 0.429501
5.74 0.391993
5.75 0.350452
5.76 0.304867
5.77 0.256121
5.78 0.204611
5.79 0.150692
5.8 0.0946948
5.81 0.0368183
5.82 -0.0225974
5.83 -0.0831913
5.84 -0.144729
5.85 -0.206987
5.86 -0.269756
5.87 -0.332823
5.88 -0.395915
5.89 -0.458803
5.9 -0.521247
5.91 -0.582989
5.92 -0.643635
5.93 -0.702892
5.94 -0.760489
5.95 -0.816096
5.96 -0.869375
5.97 -0.919877
5.98 -0.967011
5.99 -1.01072
6 -1.05069
6.01 -1.08662
6.02 -1.11826
6.03 -1.14483
6.04 -1.16653
6.05 -1.18333
6.06 -1.19512
6.07 -1.20183
6.08 -1.20318
6.09 -1.19907
6.1 -1.18995
6.11 -1.17592
6.12 -1.15709
6.13 -1.13359
6.14 -1.10497
6.15 -1.07198
6.16 -1.03478
6.17 -0.993505
6.18 -0.948292
6.19 -0.898998
6.2 -0.845829
6.21 -0.789135
6.22 -0.729047
6.23 -0.665706
6.24 -0.599215
6.25 -0.529499
6.26 -0.457141
6.27 -0.382409
6.28 -0.305624
6.29 -0.227161
6.3 -0.14739
6.31 -0.0669674
6.32 0.0134705
6.33 0.0932715
6.34 0.171724
6.35 0.247952
6.36 0.320848
6.37 0.38979
6.38 0.45393
6.39 0.512425
6.4 0.564459
6.41 0.608344
6.42 0.643997
6.43 0.670966
6.44 0.688764
6.45 0.697025
6.46 0.694946
6.47 0.682273
6.48 0.659873
6.49 0.628021
6.5 0.587143
6.51 0.537809
6.52 0.479821
6.53 0.415169
6.54 0.344834
6.55 0.269882
6.56 0.191437
6.57 0.110575
6.58 0.0287099
6.59 -0.0528897
6.6 -0.133123
6.61 -0.21096
6.62 -0.285371
6.63 -0.355034
6.64 -0.419686
6.65 -0.478798
6.66 -0.531983
6.67 -0.579003
6.68 -0.619144
6.69 -0.652869
6.7 -0.680606
6.71 -0.702664
6.72 -0.719445
6.73 -0.731247
6.74 -0.738466
6.75 -0.742106
6.76 -0.742737
6.77 -0.740915
6.78 -0.737167
6.79 -0.731851
6.8 -0.725569
6.81 -0.718671
6.82 -0.711408
6.83 -0.703951
6.84 -0.696392
6.85 -0.688743
6.86 -0.680949
6.87 -0.672898
6.88 -0.664439
6.89 -0.655395
6.9 -0.645456
6.91 -0.634528
6.92 -0.622459
6.93 -0.60913
6.94 -0.594473
6.95 -0.578363
6.96 -0.560907
6.97 -0.542305
6.98 -0.522751
6.99 -0.502499
7 -0.481854
7.01 -0.461221
7.02 -0.441027
7.03 -0.421677
7.04 -0.403576
7.05 -0.387114
7.06 -0.372884
7.07 -0.361093
7.08 -0.351904
7.09 -0.345471
7.1 -0.341865
7.11 -0.341184
7.12 -0.343396
7.13 -0.348006
7.14 -0.354675
7.15 -0.362977
7.16 -0.372406
7.17 -0.382378
7.18 -0.392118
7.19 -0.40094
7.2 -0.408143
7.21 -0.413021
7.22 -0.414642
7.23 -0.412212
7.24 -0.405345
7.25 -0.393498
7.26 -0.376196
7.27 -0.352998
7.28 -0.322832
7.29 -0.286264
7.3 -0.243197
7.31 -0.193627
7.32 -0.137636
7.33 -0.0748804
7.34 -0.00587604
7.35 0.068737
7.36 0.148569
7.37 0.233181
7.38 0.322197
7.39 0.415319
7.4 0.511549
7.41 0.610323
7.42 0.711057
7.43 0.813161
7.44 0.916049
7.45 1.01897
7.46 1.12129
7.47 1.22237
7.48 1.32159
7.49 1.41814
7.5 1.51113
7.51 1.60012
7.52 1.68443
7.53 1.76337
7.54 1.83624
7.55 1.90142
7.56 1.95893
7.57 2.00819
7.58 2.04855
7.59 2.07943
7.6 2.09958
7.61 2.10849
7.62 2.10646
7.63 2.09323
7.64 2.06865
7.65 2.03256
7.66 1.98381
7.67 1.92407
7.68 1.85375
7.69 1.77339
7.7 1.68366
7.71 1.58469
7.72 1.47791
7.73 1.36475
7.74 1.24635
7.75 1.12388
7.76 0.998522
7.77 0.871605
7.78 0.744625
7.79 0.618781
7.8 0.495215
7.81 0.374991
7.82 0.25964
7.83 0.149744
7.84 0.0458745
7.85 -0.0514203
7.86 -0.141735
7.87 -0.22443
7.88 -0.299157
7.89 -0.366581
7.9 -0.426882
7.91 -0.480349
7.92 -0.527366
7.93 -0.567683
7.94 -0.60262
7.95 -0.632766
7.96 -0.658691
7.97 -0.680953
7.98 -0.699898
7.99 -0.716124
8 -0.730242
8.01 -0.742604
8.02 -0.753494
8.03 -0.763099
8.04 -0.771442
8.05 -0.778708
8.06 -0.784872
8.07 -0.789859
8.08 -0.79355
8.09 -0.795649
8.1 -0.796037
8.11 -0.794614
8.12 -0.791231
8.13 -0.785769
8.14 -0.778067
8.15 -0.767948
8.16 -0.755665
8.17 -0.741307
8.18 -0.725021
8.19 -0.707011
8.2 -0.687393
8.21 -0.666637
8.22 -0.645106
8.23 -0.623148
8.24 -0.601113
8.25 -0.579376
8.26 -0.558316
8.27 -0.538177
8.28 -0.519174
8.29 -0.501465
8.3 -0.485139
8.31 -0.47039
8.32 -0.456955
8.33 -0.444678
8.34 -0.433338
8.35 -0.422651
8.36 -0.41228
8.37 -0.40178
8.38 -0.390734
8.39 -0.378736
8.4 -0.365391
8.41 -0.350295
8.42 -0.332884
8.43 -0.31312
8.44 -0.290832
8.45 -0.265932
8.46 -0.238422
8.47 -0.208181
8.48 -0.175595
8.49 -0.141078
8.5 -0.10504
8.51 -0.0679659
8.52 -0.0304145
8.53 0.00689891
8.54 0.0432875
8.55 0.078086
8.56 0.110633
8.57 0.14029
8.58 0.165991
8.59 0.187479
8.6 0.204379
8.61 0.216336
8.62 0.223094
8.63 0.224188
8.64 0.219495
8.65 0.209533
8.66 0.194515
8.67 0.174758
8.68 0.150669
8.69 0.122312
8.7 0.0908321
8.71 0.0568649
8.72 0.0210795
8.73 -0.0158352
8.74 -0.0531651
8.75 -0.090113
8.76 -0.126019
8.77 -0.160284
8.78 -0.192366
8.79 -0.221718
8.8 -0.247601
8.81 -0.270018
8.82 -0.28874
8.83 -0.303614
8.84 -0.314565
8.85 -0.321208
8.86 -0.323875
8.87 -0.322849
8.88 -0.318322
8.89 -0.310532
8.9 -0.299637
8.91 -0.28585
8.92 -0.269765
8.93 -0.251719
8.94 -0.23205
8.95 -0.211097
8.96 -0.189125
8.97 -0.166595
8.98 -0.143839
8.99 -0.121163
9 -0.0988572
9.01 -0.0772615
9.02 -0.056697
9.03 -0.0373625
9.04 -0.0194943
9.05 -0.00331416
9.06 0.0109619
9.07 0.0228603
9.08 0.0324708
9.09 0.039654
9.1 0.0442968
9.11 0.0463162
9.12 0.0454422
9.13 0.0417476
9.14 0.0354158
9.15 0.0265338
9.16 0.0152354
9.17 0.00165313
9.18 -0.0141122
9.19 -0.0315288
9.2 -0.0502623
9.21 -0.0699395
9.22 -0.090154
9.23 -0.110436
9.24 -0.130265
9.25 -0.149178
9.26 -0.166721
9.27 -0.182454
9.28 -0.195845
9.29 -0.206349
9.3 -0.213859
9.31 -0.218122
9.32 -0.21895
9.33 -0.216227
9.34 -0.209483
9.35 -0.199174
9.36 -0.185492
9.37 -0.168656
9.38 -0.14896
9.39 -0.126627
9.4 -0.102146
9.41 -0.076159
9.42 -0.0491727
9.43 -0.0217109
9.44 0.0056902
9.45 0.0323677
9.46 0.0578482
9.47 0.0816717
9.48 0.103424
9.49 0.122746
9.5 0.139088
9.51 0.152301
9.52 0.162387
9.53 0.16929
9.54 0.173023
9.55 0.173588
9.56 0.170935
9.57 0.165617
9.58 0.157903
9.59 0.148106
9.6 0.136566
9.61 0.123535
9.62 0.109539
9.63 0.0949814
9.64 0.0802179
9.65 0.0655832
9.66 0.0514218
9.67 0.0380782
9.68 0.0257407
9.69 0.0146021
9.7 0.00481695
9.71 -0.00349848
9.72 -0.010063
9.73 -0.0150136
9.74 -0.0183562
9.75 -0.0201081
9.76 -0.0203073
9.77 -0.0189102
9.78 -0.0160015
9.79 -0.0117576
9.8 -0.00626181
9.81 0.000399779
9.82 0.00815068
9.83 0.0170005
9.84 0.0267294
9.85 0.0372463
9.86 0.0484577
9.87 0.0602661
9.88 0.0726025
9.89 0.085318
9.9 0.0982713
9.91 0.111335
9.92 0.124373
9.93 0.137235
9.94 0.14973
9.95 0.16173
9.96 0.173092
9.97 0.183683
9.98 0.193382
9.99 0.201971
10 0.209456
10.01 0.215831
10.02 0.221103
10.03 0.225323
10.04 0.228549
10.05 0.230935
10.06 0.232774
10.07 0.234326
10.08 0.2359
10.09 0.237841
10.1 0.240678
10.11 0.24477
10.12 0.250528
10.13 0.258369
10.14 0.268689
10.15 0.282087
10.16 0.298903
10.17 0.3192
10.18 0.343145
10.19 0.370824
10.2 0.402274
10.21 0.437729
10.22 0.476485
10.23 0.518176
10.24 0.56233
10.25 0.608372
10.26 0.655674
10.27 0.703301
10.28 0.750369
10.29 0.795999
10.3 0.839284
10.31 0.879161
10.32 0.914331
10.33 0.94429
10.34 0.968256
10.35 0.985531
10.36 0.995517
10.37 0.996817
10.38 0.989765
10.39 0.974365
10.4 0.950594
10.41 0.918571
10.42 0.878143
10.43 0.829623
10.44 0.774206
10.45 0.712569
10.46 0.645482
10.47 0.57379
10.48 0.498025
10.49 0.419703
10.5 0.339775
10.51 0.259165
10.52 0.178762
10.53 0.0995384
10.54 0.0223507
10.55 -0.052223
10.56 -0.123634
10.57 -0.191437
10.58 -0.255221
10.59 -0.314329
10.6 -0.369135
10.61 -0.419641
10.62 -0.465934
10.63 -0.508174
10.64 -0.546237
10.65 -0.580646
10.66 -0.611846
10.67 -0.640139
10.68 -0.665819
10.69 -0.689079
10.7 -0.710068
10.71 -0.729188
10.72 -0.746563
10.73 -0.762262
10.74 -0.776294
10.75 -0.788396
10.76 -0.798604
10.77 -0.80678
10.78 -0.812716
10.79 -0.816172
10.8 -0.816717
10.81 -0.813995
10.82 -0.807969
10.83 -0.798417
10.84 -0.785149
10.85 -0.768018
10.86 -0.746414
10.87 -0.72085
10.88 -0.691393
10.89 -0.658177
10.9 -0.621409
10.91 -0.581136
10.92 -0.537841
10.93 -0.492119
10.94 -0.444432
10.95 -0.39528
10.96 -0.345183
10.97 -0.294726
10.98 -0.244547
10.99 -0.195178
11 -0.14713
11.01 -0.100882
11.02 -0.0571326
11.03 -0.0161747
11.04 0.0217544
11.05 0.0563933
11.06 0.0875401
11.07 0.114896
11.08 0.138184
11.09 0.157731
11.1 0.17357
11.11 0.185782
11.12 0.194482
11.13 0.199435
11.14 0.201183
11.15 0.19997
11.16 0.195992
11.17 0.189453
11.18 0.180417
11.19 0.169089
11.2 0.155822
11.21 0.140787
11.22 0.124146
11.23 0.106042
11.24 0.0864705
11.25 0.0657447
11.26 0.0439894
11.27 0.0213264
11.28 -0.0021233
11.29 -0.02628
11.3 -0.0509749
11.31 -0.076039
11.32 -0.101329
11.33 -0.126696
11.34 -0.151973
11.35 -0.176951
11.36 -0.20147
11.37 -0.225358
11.38 -0.248441
11.39 -0.27055
11.4 -0.291387
11.41 -0.310858
11.42 -0.328864
11.43 -0.345282
11.44 -0.360006
11.45 -0.372867
11.46 -0.383711
11.47 -0.392657
11.48 -0.399686
11.49 -0.404797
11.5 -0.408004
11.51 -0.409111
11.52 -0.408372
11.53 -0.40586
11.54 -0.401631
11.55 -0.395742
11.56 -0.388148
11.57 -0.378904
11.58 -0.368167
11.59 -0.355977
11.6 -0.342369
11.61 -0.327359
11.62 -0.310814
11.63 -0.292928
11.64 -0.273725
11.65 -0.253231
11.66 -0.231479
11.67 -0.208416
11.68 -0.184157
11.69 -0.158846
11.7 -0.132587
11.71 -0.105506
11.72 -0.0777443
11.73 -0.0494694
11.74 -0.0209572
11.75 0.00756261
11.76 0.0358422
11.77 0.0636194
11.78 0.090511
11.79 0.116266
11.8 0.140638
11.81 0.16337
11.82 0.184222
11.83 0.202871
11.84 0.219025
11.85 0.232738
11.86 0.243922
11.87 0.252535
11.88 0.258587
11.89 0.261834
11.9 0.262701
11.91 0.261377
11.92 0.258072
11.93 0.253033
11.94 0.246457
11.95 0.238701
11.96 0.230175
11.97 0.221193
11.98 0.212068
11.99 0.203098
12 0.194638
12.01 0.18689
12.02 0.180044
12.03 0.174247
12.04 0.169599
12.05 0.166258
12.06 0.164163
12.07 0.163202
12.08 0.163272
12.09 0.164234
12.1 0.165936
12.11 0.16819
12.12 0.170713
12.13 0.173292
12.14 0.175718
12.15 0.177795
12.16 0.179277
12.17 0.180053
12.18 0.180042
12.19 0.17919
12.2 0.177488
12.21 0.174935
12.22 0.171612
12.23 0.167724
12.24 0.163447
12.25 0.15899
12.26 0.154587
12.27 0.150562
12.28 0.147166
12.29 0.144655
12.3 0.143273
12.31 0.143243
12.32 0.144882
12.33 0.148347
12.34 0.153636
12.35 0.160794
12.36 0.169813
12.37 0.180654
12.38 0.19335
12.39 0.207499
12.4 0.222866
12.41 0.239174
12.42 0.256108
12.43 0.27332
12.44 0.290378
12.45 0.306902
12.46 0.322523
12.47 0.336884
12.48 0.349582
12.49 0.360147
12.5 0.368488
12.51 0.374393
12.52 0.3777
12.53 0.3783
12.54 0.375824
12.55 0.370535
12.56 0.362562
12.57 0.352022
12.58 0.339078
12.59 0.323826
12.6 0.3065
12.61 0.287542
12.62 0.26724
12.63 0.245893
12.64 0.223801
12.65 0.201241
12.66 0.178584
12.67 0.156095
12.68 0.134016
12.69 0.112562
12.7 0.0919937
12.71 0.0724721
12.72 0.0540617
12.73 0.0368452
12.74 0.0208754
12.75 0.00620099
12.76 -0.00705718
12.77 -0.0190752
12.78 -0.0298983
12.79 -0.0395846
12.8 -0.0482021
12.81 -0.0557365
12.82 -0.0623319
12.83 -0.0681005
12.84 -0.0731123
12.85 -0.0774307
12.86 -0.0810882
12.87 -0.0841028
12.88 -0.086568
12.89 -0.0885078
12.9 -0.0899367
12.91 -0.0908616
12.92 -0.0912232
12.93 -0.0910642
12.94 -0.0903851
12.95 -0.0891759
12.96 -0.0874282
12.97 -0.0851044
12.98 -0.082196
12.99 -0.0787527
13 -0.0747915
13.01 -0.0703393
13.02 -0.0654324
13.03 -0.0600742
13.04 -0.0543869
13.05 -0.0484453
13.06 -0.0423348
13.07 -0.0361511
13.08 -0.0300111
13.09 -0.0240467
13.1 -0.0183763
13.11 -0.0131252
13.12 -0.00842096
13.13 -0.00440913
13.14 -0.00130574
13.15 0.000849136
13.16 0.00194398
13.17 0.00187739
13.18 0.000560495
13.19 -0.00221833
13.2 -0.00643508
13.21 -0.0120742
13.22 -0.0191458
13.23 -0.0276372
